0
0
0
0
0
0
0
0
0
1
2
3
4
5
6
7
7
7
7
11
24
50
86
122
150
166
172
172
172
172
174
176
178
181
184
187
190
192
193
193
192
191
190
189
188
188
188
188
184
171
145
109
73
45
29
23
23
23
23
21
19
17
14
11
8
5
3
1
0
0
0
0
0
0
0
0
0
0
0
0
0
0
0
0
0
0
0
0
0
0
0
0
0
0
0
0
0
0
0
0
0
0
0
0
0
0
0
0
0
0
0
0
0
0
1
3
6
12
21
35
55
81
111
143
173
197
213
218
218
228
281
413
665
1046
1534
2071
2559
2905
3077
3113
3115
3191
3399
3724
4089
4426
4690
4868
4970
5017
5027
5016
4992
4964
4940
4924
4919
4921
4915
4869
4746
4503
4130
3648
3115
2630
2286
2115
2079
2077
2001
1793
1467
1100
760
490
304
190
124
89
70
62
60
60
60
60
58
54
47
38
29
21
15
11
8
6
5
5
5
5
5
5
5
5
5
4
2
1
0
0
0
0
0
0
0
0
0
0
0
0
0
0
0
0
0
0
0
0
0
0
0
0
0
0
0
0
0
0
0
0
0
0
0
0
0
0
0
0
0
0
0
0
0
0
0
0
0
0
0
0
0
0
0
0
0
0
0
0
0
0
0
0
0
1
3
7
14
26
43
65
91
121
151
177
197
206
207
210
242
339
541
874
1322
1834
2330
2726
2961
3044
3048
3070
3190
3425
3731
4049
4315
4510
4638
4711
4742
4748
4735
4712
4688
4668
4659
4661
4664
4641
4554
4362
4038
3597
3089
2596
2202
1968
1885
1881
1859
1739
1504
1197
877
607
405
265
175
122
90
73
66
64
64
64
61
55
46
36
26
17
10
6
3
1
0
0
0
0
0
0
0
0
0
0
0
0
0
0
0
0
0
0
0
0
0
0
0
0
0
0
0
0
0
0
0
0
0
0
0
0
0
0
0
0
0
0
0
0
0
0
0
0
0
0
0
0
0
0
0
0
0
0
0
0
0
0
0
0
0
0
0
0
0
0
0
1
2
3
4
6
8
10
14
20
30
44
64
88
116
144
170
190
202
204
205
227
307
484
784
1202
1698
2202
2627
2909
3028
3044
3051
3140
3351
3662
4013
4335
4593
4775
4893
4956
4982
4980
4961
4936
4916
4907
4913
4925
4919
4856
4693
4405
3995
3505
3005
2582
2301
2181
2164
2156
2066
1853
1540
1187
861
597
405
273
190
140
114
105
104
104
101
93
80
64
47
33
21
13
7
3
1
0
0
0
0
0
0
0
0
0
0
0
0
0
0
0
0
0
0
0
0
0
0
0
0
0
0
0
0
0
0
0
0
0
0
0
0
0
0
0
0
0
0
0
0
0
0
0
0
0
0
0
0
0
0
0
0
0
0
0
0
0
0
0
0
0
0
0
0
0
0
0
0
0
0
0
1
2
3
5
9
16
28
44
66
92
122
154
184
208
222
224
225
247
330
512
832
1280
1817
2363
2827
3134
3270
3290
3299
3402
3653
4019
4420
4783
5058
5233
5329
5365
5367
5347
5318
5288
5264
5250
5250
5253
5237
5161
4987
4674
4232
3699
3156
2694
2388
2252
2232
2223
2119
1867
1500
1097
730
448
261
149
91
63
53
50
50
50
50
48
44
38
31
23
16
10
6
3
1
0
0
0
0
0
0
0
0
0
0
0
0
0
0
0
0
0
0
0
0
0
0
0
0
0
0
0
0
0
0
0
0
0
0
0
0
0
0
0
0
0
0
0
0
0
0
0
0
0
0
0
0
0
0
0
0
0
0
0
0
0
0
0
0
0
0
0
0
0
0
0
0
0
0
0
0
1
3
7
13
23
37
57
83
113
145
177
205
224
231
231
240
290
422
668
1035
1499
1995
2459
2799
2986
3039
3039
3079
3228
3485
3803
4119
4389
4587
4713
4783
4810
4808
4789
4761
4733
4714
4709
4714
4714
4676
4556
4322
3964
3506
3014
2553
2215
2029
1976
1976
1936
1787
1529
1209
889
613
405
265
175
122
94
81
77
77
77
75
70
61
49
37
25
16
10
6
3
1
0
0
0
0
0
0
0
0
0
0
0
0
0
0
0
0
0
0
0
0
0
0
0
0
0
0
0
0
0
0
0
0
0
0
0
0
0
0
0
0
0
0
0
0
0
0
0
0
0
0
0
0
0
0
0
0
0
0
0
0
0
0
0
0
0
0
0
0
0
0
0
0
0
0
0
0
0
1
3
7
13
22
36
56
80
108
136
162
182
194
196
197
217
290
453
735
1145
1641
2145
2578
2860
2984
3000
3010
3110
3339
3664
4022
4338
4578
4737
4827
4868
4876
4862
4838
4812
4792
4780
4780
4784
4771
4707
4553
4280
3877
3386
2885
2454
2173
2050
2034
2024
1924
1695
1369
1009
689
443
275
171
110
78
64
60
60
60
60
58
53
46
37
28
19
12
7
4
2
1
0
0
0
0
0
0
0
0
0
0
0
0
0
0
0
0
0
0
0
0
0
0
0
0
0
0
0
0
0
0
0
0
0
0
0
0
0
0
0
0
0
0
0
0
0
0
0
0
0
0
0
0
0
0
0
0
0
0
0
0
0
0
0
0
0
0
0
0
0
0
0
0
0
0
1
2
3
4
6
9
13
21
34
51
73
97
123
147
166
176
178
178
191
247
379
619
979
1427
1907
2325
2613
2745
2767
2770
2849
3050
3349
3680
3977
4202
4348
4425
4458
4462
4450
4428
4405
4386
4376
4374
4375
4366
4316
4192
3961
3609
3167
2691
2276
1990
1859
1837
1833
1753
1551
1251
918
618
389
235
145
95
69
57
53
52
52
52
52
51
47
41
33
24
16
10
6
3
1
0
0
0
0
0
0
0
0
0
0
0
0
0
0
0
0
0
0
0
0
0
0
0
0
0
0
0
0
0
0
0
0
0
0
0
0
0
0
0
0
0
0
0
0
0
0
0
0
0
0
0
0
0
0
0
0
0
0
0
0
0
0
0
0
0
0
0
0
0
0
0
0
0
0
0
0
1
3
7
13
22
36
55
79
107
139
171
199
216
222
222
235
299
453
729
1125
1613
2117
2557
2870
3024
3060
3060
3116
3284
3553
3871
4180
4444
4637
4763
4834
4866
4868
4849
4820
4792
4776
4774
4783
4782
4732
4592
4328
3941
3460
2960
2522
2210
2056
2020
2020
1964
1796
1526
1206
893
623
421
281
191
135
105
92
89
89
88
84
75
63
49
35
23
14
7
3
1
0
0
0
0
0
0
0
0
0
0
0
0
0
0
0
0
0
0
0
0
0
0
0
0
0
0
0
0
0
0
0
0
0
0
0
0
0
0
0
0
0
0
0
0
0
0
0
0
0
0
0
0
0
0
0
0
0
0
0
0
0
0
0
0
0
0
0
0
0
0
0
0
0
0
0
0
1
2
4
6
10
15
24
38
57
81
107
135
161
181
193
195
196
218
294
466
760
1178
1674
2186
2611
2887
3003
3015
3031
3150
3407
3758
4130
4452
4693
4842
4921
4950
4948
4930
4904
4878
4858
4847
4849
4854
4840
4774
4612
4328
3919
3430
2923
2502
2228
2113
2101
2085
1965
1707
1354
980
654
408
250
157
109
87
79
77
77
77
76
72
66
58
48
38
28
19
12
7
3
1
0
0
0
0
0
0
0
0
0
0
0
0
0
0
0
0
0
0
0
0
0
0
0
0
0
0
0
0
0
0
0
0
0
0
0
0
0
0
0
0
0
0
0
0
0
0
0
0
0
0
0
0
0
0
0
0
0
0
0
0
0
0
0
0
0
0
0
0
0
0
0
0
0
0
0
1
3
7
12
20
32
48
68
92
118
144
166
180
184
184
196
252
392
644
1018
1482
1978
2418
2731
2885
2919
2920
2984
3161
3436
3754
4057
4304
4483
4603
4677
4713
4721
4708
4686
4664
4651
4652
4662
4664
4625
4502
4264
3900
3443
2951
2513
2201
2047
2013
2012
1948
1771
1495
1175
868
616
429
297
207
151
119
106
102
102
101
96
86
72
55
38
24
14
7
3
1
0
0
0
0
0
0
0
0
0
0
0
0
0
0
0
0
0
0
0
0
0
0
0
0
0
0
0
0
0
0
0
0
0
0
0
0
0
0
0
0
0
0
0
0
0
0
0
0
0
0
0
0
0
0
0
0
0
0
0
0
0
0
0
0
0
0
0
0
0
0
0
0
0
0
0
0
0
1
3
7
15
28
45
69
97
127
157
183
202
210
210
214
250
354
562
895
1343
1847
2327
2694
2896
2954
2954
2999
3162
3444
3789
4127
4399
4593
4708
4764
4776
4764
4740
4711
4685
4666
4659
4663
4665
4637
4543
4345
4020
3578
3079
2603
2238
2037
1979
1979
1934
1771
1489
1143
803
527
325
197
124
88
72
66
65
65
65
64
60
54
46
36
26
18
12
7
3
1
0
0
0
0
0
0
0
0
0
0
0
0
0
0
0
0
0
0
0
0
0
0
0
0
0
0
0
0
0
0
0
0
0
0
0
0
0
0
0
0
0
0
0
0
0
0
0
0
0
0
0
0
0
0
0
0
0
0
0
0
0
0
0
0
0
0
0
0
0
0
0
0
0
0
0
1
2
4
8
14
24
38
58
82
110
138
162
179
186
186
193
238
362
591
944
1400
1904
2376
2736
2938
3002
3003
3037
3177
3434
3759
4090
4380
4603
4756
4850
4897
4909
4895
4870
4846
4830
4828
4836
4841
4809
4697
4478
4133
3682
3182
2712
2353
2151
2087
2086
2052
1912
1654
1328
995
701
472
309
201
134
98
84
81
81
80
75
67
55
42
30
20
12
7
3
1
0
0
0
0
0
0
0
0
0
0
0
0
0
0
0
0
0
0
0
0
0
0
0
0
0
0
0
0
0
0
0
0
0
0
0
0
0
0
0
0
0
0
0
0
0
0
0
0
0
0
0
0
0
0
0
0
0
0
0
0
0
0
0
0
0
0
0
0
0
0
0
0
0
0
0
0
0
1
3
7
14
26
43
65
93
123
153
181
201
210
210
214
248
352
565
898
1338
1834
2306
2680
2904
2984
2987
3011
3135
3375
3694
4025
4309
4520
4657
4730
4758
4754
4733
4705
4677
4657
4650
4654
4656
4630
4535
4330
4004
3569
3076
2606
2233
2009
1929
1926
1902
1778
1538
1218
885
597
379
230
140
90
66
57
55
55
55
53
49
43
35
26
18
11
6
3
1
0
0
0
0
0
0
0
0
0
0
0
0
0
0
0
0
0
0
0
0
0
0
0
0
0
0
0
0
0
0
0
0
0
0
0
0
0
1
4
9
18
32
51
73
99
127
153
173
185
187
187
207
280
443
719
1107
1579
2059
2469
2745
2865
2882
2890
2980
3193
3500
3839
4143
4373
4518
4594
4623
4623
4605
4579
4553
4533
4521
4520
4523
4508
4441
4285
4015
3631
3162
2684
2275
1999
1879
1862
1854
1764
1551
1244
904
597
362
208
118
70
48
40
38
38
38
38
37
34
29
23
16
10
6
3
1
0
0
0
0
0
0
0
0
0
0
0
0
0
0
0
0
0
0
0
0
0
0
0
0
0
0
0
0
0
0
0
0
0
0
0
0
0
0
0
0
0
0
0
0
0
0
0
0
0
0
0
0
0
0
0
0
0
0
0
0
0
0
0
0
0
0
0
0
0
0
0
0
0
0
0
0
0
0
0
0
0
0
0
0
0
0
0
0
0
0
0
0
0
0
0
0
0
0
1
3
5
9
15
24
37
54
74
94
114
130
139
141
141
155
211
343
578
918
1336
1776
2164
2434
2566
2590
2594
2670
2872
3184
3542
3866
4114
4276
4360
4390
4390
4374
4354
4334
4318
4309
4307
4308
4297
4245
4119
3890
3555
3141
2704
2318
2049
1918
1894
1890
1814
1612
1299
939
613
361
193
100
57
40
36
36
36
36
36
36
35
32
28
22
16
11
7
4
2
1
0
0
0
0
0
0
0
0
0
0
0
0
0
0
0
0
0
0
0
0
0
0
0
0
0
0
0
0
0
0
0
0
0
0
0
0
0
0
0
0
0
0
0
0
0
0
0
0
0
0
0
0
0
0
0
0
0
0
0
0
0
0
0
0
0
0
0
0
0
0
0
0
0
0
0
0
0
0
0
0
1
3
7
14
26
42
61
83
107
129
146
155
156
157
176
240
380
620
960
1370
1795
2162
2402
2506
2518
2530
2630
2854
3167
3499
3785
3989
4110
4165
4181
4174
4156
4132
4110
4093
4084
4083
4083
4066
4006
3870
3635
3299
2892
2469
2104
1865
1762
1750
1738
1638
1414
1101
768
480
272
144
77
45
33
29
29
29
29
29
29
28
26
22
18
13
9
6
4
2
1
0
0
0
0
0
0
0
0
0
0
0
0
0
0
0
0
0
0
0
0
0
0
0
0
0
0
0
0
0
0
0
0
0
0
0
0
0
0
0
0
0
0
0
0
0
0
0
0
0
0
0
0
0
0
0
0
0
0
0
0
0
0
0
0
0
0
0
0
0
0
0
0
0
0
0
1
2
3
5
8
13
20
28
37
46
55
62
66
67
67
71
93
157
289
507
807
1153
1493
1751
1891
1925
1927
2017
2311
2847
3546
4226
4728
5001
5089
5092
5086
5103
5139
5178
5214
5246
5275
5301
5316
5307
5250
5121
4904
4604
4258
3918
3660
3520
3486
3484
3394
3100
2563
1863
1182
678
402
309
299
297
271
226
178
135
99
69
43
24
11
4
1
0
0
0
0
0
0
0
0
0
0
0
0
0
0
0
0
0
0
0
0
0
0
0
0
0
0
0
0
0
0
0
0
0
0
0
0
0
0
0
0
0
0
0
0
0
0
0
0
0
0
0
0
0
0
0
0
0
0
0
0
0
0
0
0
0
0
0
0
0
0
0
0
0
0
0
0
0
0
0
0
0
0
0
0
0
1
3
7
13
23
37
56
80
106
132
154
170
176
176
183
223
331
539
859
1269
1717
2135
2448
2620
2670
2670
2710
2859
3117
3442
3760
4026
4217
4335
4394
4415
4410
4391
4367
4345
4329
4325
4330
4330
4299
4200
4001
3688
3283
2839
2423
2111
1939
1889
1889
1849
1700
1442
1116
796
526
329
201
128
88
69
62
60
60
60
58
53
46
37
28
19
12
7
3
1
0
0
0
0
0
0
0
0
0
0
0
0
0
0
0
0
0
0
0
0
0
0
0
0
0
0
0
0
0
0
0
0
0
0
0
0
0
0
0
0
0
0
0
0
0
0
0
0
0
0
0
0
0
0
0
0
0
0
0
0
0
0
0
0
0
0
0
0
0
0
0
0
0
0
0
0
1
2
4
8
14
23
35
51
70
92
114
134
150
158
158
160
184
264
427
697
1071
1519
1975
2356
2608
2716
2728
2740
2840
3063
3382
3726
4022
4240
4371
4439
4463
4463
4449
4429
4409
4393
4385
4385
4384
4363
4287
4130
3867
3499
3056
2604
2226
1976
1869
1857
1845
1745
1521
1201
855
555
331
191
111
71
52
44
42
42
42
42
42
41
38
34
28
21
15
10
6
3
1
0
0
0
0
0
0
0
0
0
0
0
0
0
0
0
0
0
0
0
0
0
0
0
0
0
0
0
0
0
0
0
0
0
0
0
0
0
0
0
0
0
0
0
0
0
0
0
0
0
0
0
0
0
0
0
0
0
0
0
0
0
0
0
0
0
0
0
0
0
0
0
0
0
0
0
1
3
6
11
20
33
50
72
98
126
154
178
195
201
201
209
254
378
607
953
1401
1881
2321
2641
2813
2861
2861
2901
3046
3297
3602
3906
4159
4347
4470
4543
4574
4578
4564
4540
4516
4499
4496
4503
4505
4472
4360
4141
3803
3360
2884
2446
2127
1955
1907
1907
1867
1722
1470
1163
856
598
401
265
175
122
92
78
74
74
74
71
64
54
42
30
20
12
7
3
1
0
0
0
0
0
0
0
0
0
0
0
0
0
0
0
0
0
0
0
0
0
0
0
0
0
0
0
0
0
0
0
0
0
0
0
0
0
0
0
0
0
0
0
0
0
0
0
0
0
0
0
0
0
0
0
0
0
0
0
0
0
0
0
0
0
0
0
0
0
0
0
0
0
0
0
0
0
0
1
2
4
8
14
24
38
58
84
114
144
172
194
208
211
211
230
306
483
790
1223
1743
2280
2736
3043
3179
3199
3207
3304
3538
3883
4262
4611
4881
5058
5160
5204
5212
5196
5170
5142
5120
5107
5108
5114
5103
5036
4869
4571
4145
3630
3096
2642
2336
2200
2180
2172
2075
1840
1494
1113
760
484
297
181
117
83
69
65
65
65
64
60
54
46
37
27
18
11
6
3
1
0
0
0
0
0
0
0
0
0
0
0
0
0
0
0
0
0
0
0
0
0
0
0
0
0
0
0
0
0
0
0
0
0
0
0
0
0
0
0
0
0
0
0
0
0
0
0
0
0
0
0
0
0
0
0
0
0
0
0
0
0
0
0
0
0
0
0
0
0
0
0
0
0
0
0
0
1
2
3
5
9
15
24
37
54
76
100
126
150
169
178
179
181
209
299
486
793
1211
1699
2179
2567
2813
2910
2917
2936
3059
3322
3681
4053
4375
4609
4749
4816
4835
4827
4807
4781
4757
4738
4729
4730
4732
4708
4624
4443
4142
3728
3243
2765
2379
2134
2037
2030
2011
1887
1623
1263
889
563
323
174
94
58
44
40
40
40
40
40
38
34
30
24
18
12
8
5
3
1
0
0
0
0
0
0
0
0
0
0
0
0
0
0
0
0
0
0
0
0
0
0
0
0
0
0
0
0
0
0
0
0
0
0
0
0
0
0
0
0
0
0
0
0
0
0
0
0
0
0
0
0
0
0
0
0
0
0
0
0
0
0
0
0
0
0
0
0
0
0
0
0
0
0
0
0
1
3
5
9
14
22
35
52
74
100
130
158
182
196
200
200
214
275
424
694
1090
1578
2090
2546
2866
3024
3058
3059
3120
3301
3593
3937
4266
4537
4731
4854
4920
4946
4946
4926
4900
4876
4863
4863
4871
4867
4818
4681
4421
4033
3550
3041
2587
2268
2110
2076
2075
2014
1832
1538
1192
859
583
381
245
162
114
88
78
76
76
75
71
63
53
41
29
19
11
6
3
1
0
0
0
0
0
0
0
0
0
0
0
0
0
0
0
0
0
0
0
0
0
0
0
0
0
0
0
0
0
0
0
0
0
0
0
0
0
0
0
0
0
0
0
0
0
0
0
0
0
0
0
0
0
0
0
0
0
0
0
0
0
0
0
0
0
0
0
0
0
0
0
0
0
0
0
0
0
0
1
4
9
17
29
46
68
96
128
160
188
210
220
221
224
256
356
569
922
1402
1965
2519
2967
3237
3334
3338
3366
3511
3799
4179
4572
4907
5151
5307
5387
5418
5416
5394
5364
5336
5314
5306
5309
5314
5292
5202
4999
4654
4180
3621
3070
2624
2355
2258
2254
2226
2081
1793
1412
1016
676
424
256
159
106
80
70
68
68
68
66
62
54
44
34
24
16
10
6
3
1
0
0
0
0
0
0
0
0
0
0
0
0
0
0
0
0
0
0
0
0
0
0
0
0
0
0
0
0
0
0
0
0
0
0
0
0
0
0
0
0
0
0
0
0
0
0
0
0
0
0
0
0
0
0
0
0
0
0
0
0
0
0
0
0
0
0
0
0
0
0
0
0
0
0
1
2
4
7
12
21
35
55
83
117
153
189
219
239
247
247
255
305
441
705
1108
1628
2200
2720
3101
3298
3348
3348
3415
3622
3961
4355
4719
5002
5185
5283
5321
5319
5294
5260
5224
5194
5174
5167
5170
5166
5123
4995
4739
4343
3828
3260
2742
2362
2166
2116
2116
2049
1841
1501
1105
738
450
258
146
88
62
53
51
51
51
51
50
47
43
36
28
20
13
8
4
2
1
0
0
0
0
0
0
0
0
0
0
0
0
0
0
0
0
0
0
0
0
0
0
0
0
0
0
0
0
0
0
0
0
0
0
0
0
0
0
0
0
0
0
0
0
0
0
0
0
0
0
0
0
0
0
0
0
0
0
0
0
0
0
0
0
0
0
0
0
0
0
0
0
0
0
0
0
1
2
5
10
18
31
50
72
98
124
148
167
176
177
178
198
268
422
692
1073
1529
1993
2374
2614
2707
2714
2731
2843
3072
3371
3677
3938
4125
4245
4312
4341
4347
4335
4314
4291
4272
4263
4265
4269
4257
4196
4051
3789
3414
2962
2501
2122
1883
1790
1783
1766
1654
1425
1125
818
554
362
234
154
106
78
64
59
58
58
58
55
50
42
33
24
16
10
6
3
1
0
0
0
0
0
0
0
0
0
0
0
0
0
0
0
0
0
0
0
0
0
0
0
0
0
0
0
0
0
0
0
0
0
0
0
0
0
0
0
0
0
0
0
0
0
0
0
0
0
0
0
0
0
0
0
0
0
0
0
0
0
0
0
0
0
0
0
0
0
0
0
0
0
1
2
3
4
6
9
14
22
34
51
73
99
129
157
179
191
193
193
213
286
449
731
1127
1607
2103
2536
2824
2956
2976
2982
3074
3297
3629
4001
4344
4615
4799
4907
4957
4969
4957
4931
4903
4881
4871
4875
4884
4876
4815
4662
4389
3999
3523
3030
2599
2312
2180
2160
2153
2060
1836
1503
1129
783
507
315
195
128
94
80
76
76
76
74
68
59
47
35
25
16
10
6
3
1
0
0
0
0
0
0
0
0
0
0
0
0
0
0
0
0
0
0
0
0
0
0
0
0
0
0
0
0
0
0
0
0
0
0
0
0
0
0
0
0
0
0
0
0
0
0
0
0
0
0
0
0
0
0
0
0
0
0
0
0
0
0
0
0
0
0
0
0
0
0
0
0
0
0
0
1
2
4
6
10
16
25
38
55
75
99
123
143
157
162
162
169
212
324
537
857
1267
1715
2133
2446
2618
2668
2668
2706
2845
3096
3401
3699
3941
4107
4206
4251
4264
4258
4239
4217
4197
4183
4178
4179
4174
4135
4028
3821
3506
3100
2655
2239
1927
1755
1705
1705
1667
1527
1275
968
668
422
250
142
84
54
40
35
33
33
33
33
32
30
26
21
15
10
6
3
1
0
0
0
0
0
0
0
0
0
0
0
0
0
0
0
0
0
0
0
0
0
0
0
0
0
0
0
0
0
0
0
0
0
0
0
0
0
0
0
0
0
0
0
0
0
0
0
0
0
0
0
0
0
0
0
0
0
0
0
0
0
0
0
0
0
0
0
0
0
0
0
0
0
0
0
0
0
1
2
4
8
15
27
43
63
87
113
139
163
180
187
187
193
233
345
558
884
1294
1734
2130
2418
2567
2607
2607
2643
2759
2955
3189
3416
3604
3746
3838
3889
3912
3914
3901
3880
3857
3840
3833
3835
3833
3799
3694
3488
3168
2763
2327
1934
1648
1500
1460
1460
1424
1308
1111
876
647
455
306
202
135
92
66
53
48
47
47
47
45
41
35
28
21
15
10
6
3
1
0
0
0
1
2
4
8
12
18
24
29
33
35
35
35
35
35
36
38
41
44
47
49
51
52
52
52
52
52
52
52
52
51
50
48
44
40
34
28
25
25
30
42
58
78
102
127
151
170
181
183
181
188
235
359
588
934
1367
1839
2264
2571
2725
2763
2763
2813
2967
3219
3513
3793
4018
4174
4266
4308
4320
4310
4289
4264
4242
4228
4224
4227
4222
4180
4062
3839
3497
3067
2597
2173
1866
1712
1674
1674
1624
1470
1218
924
642
413
250
146
88
56
42
37
36
36
36
35
32
28
22
16
10
6
3
1
0
0
0
0
0
0
0
0
0
0
0
0
0
0
0
0
0
0
0
0
0
0
0
0
0
0
0
0
0
0
0
0
0
0
0
0
0
0
0
0
0
0
0
0
0
0
0
0
0
0
0
0
0
0
0
0
0
0
0
0
0
0
0
0
0
0
0
0
0
0
0
0
0
0
0
0
0
0
0
0
0
0
0
0
0
0
0
0
0
0
0
0
0
0
0
1
3
7
13
23
37
56
78
102
128
152
169
177
177
181
219
331
544
870
1295
1767
2207
2547
2744
2811
2813
2837
2953
3182
3481
3786
4046
4237
4359
4425
4449
4449
4435
4414
4392
4375
4367
4367
4364
4329
4222
4016
3698
3280
2813
2377
2040
1845
1779
1778
1754
1638
1409
1109
802
538
341
209
129
86
64
54
49
47
47
47
47
46
43
38
31
23
16
11
7
4
2
1
0
0
0
0
0
0
0
0
0
0
0
0
0
0
0
0
0
0
0
0
0
0
0
0
0
0
0
0
0
0
0
0
0
0
0
0
0
0
0
0
0
0
0
0
2
10
26
48
74
98
118
132
139
142
142
142
146
158
182
220
273
334
398
462
518
563
591
601
601
607
641
721
845
983
1103
1170
1186
1168
1144
1128
1126
1133
1142
1151
1157
1157
1148
1126
1089
1036
975
911
847
791
746
718
708
708
702
668
588
464
324
196
113
75
67
67
63
51
37
25
16
10
6
3
1
0
0
0
0
0
0
0
0
0
0
0
0
0
0
0
0
0
1
2
3
4
6
8
10
11
11
11
12
16
26
43
65
89
111
128
140
146
148
148
148
152
164
184
212
242
270
293
308
316
319
318
316
316
324
344
376
413
443
455
447
427
403
382
368
360
357
358
360
362
360
350
331
304
274
246
222
206
197
193
192
192
190
181
161
129
91
57
35
26
24
24
23
20
16
13
10
8
6
4
2
1
0
0
0
0
0
0
0
0
0
0
0
0
0
0
0
0
1
2
3
4
5
6
7
7
7
7
11
20
36
56
78
98
114
126
132
134
134
134
139
152
172
198
226
252
272
287
298
303
304
303
304
312
332
362
396
420
428
418
398
376
357
343
333
328
327
328
329
325
314
296
272
245
219
199
183
171
165
163
163
161
152
132
102
68
40
23
17
17
17
16
14
12
11
10
9
8
7
5
3
1
0
0
0
0
0
0
0
0
0
0
0
0
0
0
0
1
2
3
4
5
6
7
7
7
7
9
17
31
51
75
97
114
126
132
133
133
133
138
150
170
196
222
244
261
270
274
274
273
272
273
279
295
319
347
371
379
371
351
327
306
292
283
279
280
281
281
276
265
246
222
198
177
160
150
145
144
144
144
142
135
119
95
67
41
25
19
19
19
18
15
12
10
8
7
7
7
6
5
3
1
0
0
0
0
0
0
0
0
0
0
0
0
0
1
2
4
6
9
12
15
17
18
18
18
23
39
67
105
148
191
229
257
273
278
278
280
292
320
363
416
469
512
543
559
564
564
561
559
561
573
598
632
668
691
689
664
626
584
546
515
493
481
478
479
477
465
437
394
341
288
245
213
196
189
187
187
186
181
167
141
107
71
43
29
26
26
25
20
13
7
3
1
0
0
0
0
0
0
0
0
0
0
0
0
0
0
0
0
0
0
0
0
1
2
4
6
8
10
12
13
13
13
14
20
36
66
109
159
209
249
277
291
295
295
298
311
341
389
456
536
619
694
754
792
810
812
810
816
847
911
1004
1103
1183
1223
1215
1176
1126
1081
1054
1043
1046
1056
1065
1067
1056
1026
978
911
831
749
674
614
575
555
551
551
543
511
447
354
254
168
112
90
86
86
81
68
51
34
20
11
6
4
4
4
4
4
3
2
1
0
0
0
0
0
0
0
0
0
0
0
1
3
6
10
14
18
22
24
25
25
25
30
44
70
106
144
180
208
227
237
241
241
241
245
258
282
316
352
384
409
424
431
432
430
426
422
422
431
453
485
514
526
512
478
440
406
383
370
364
362
363
363
359
346
322
288
252
220
194
177
167
162
160
160
160
158
148
126
94
60
34
22
20
20
18
13
7
3
1
0
0
0
0
0
0
0
0
0
0
0
0
0
0
0
0
0
0
0
0
0
0
1
3
6
10
16
23
29
33
35
35
35
41
57
85
121
159
193
217
231
237
238
238
239
244
258
284
324
380
450
525
590
635
655
653
648
668
734
848
988
1120
1214
1254
1245
1210
1174
1150
1143
1149
1160
1172
1180
1183
1180
1167
1141
1101
1045
975
899
832
784
760
756
754
728
658
542
402
270
170
114
95
94
92
82
65
45
28
15
7
3
1
0
0
0
0
0
0
0
0
0
0
0
0
0
0
0
0
0
0
1
3
5
8
12
16
20
22
22
22
24
34
58
94
137
180
216
242
256
261
261
261
265
277
303
343
396
457
524
587
641
682
705
709
705
710
748
828
940
1058
1148
1188
1182
1146
1103
1068
1047
1040
1043
1051
1059
1062
1057
1038
1003
954
895
828
764
708
665
639
631
631
622
582
502
390
270
170
106
76
69
69
68
63
56
48
40
32
25
18
11
6
2
0
0
0
0
0
0
0
0
0
0
0
0
0
0
0
0
1
2
4
6
8
11
13
15
15
15
16
24
43
75
118
163
203
231
247
253
253
253
259
276
308
353
409
470
531
586
633
663
677
677
675
690
736
816
913
1002
1061
1076
1054
1012
967
929
905
893
890
892
894
889
874
844
802
749
690
630
574
526
494
478
476
475
458
410
330
233
143
76
42
32
31
31
29
25
21
18
16
14
13
11
9
6
3
1
0
0
0
0
0
0
0
0
0
0
0
0
0
0
1
3
5
7
9
11
13
15
15
15
15
19
32
56
90
126
160
186
203
211
213
213
214
222
239
269
309
357
407
454
492
522
537
539
537
544
576
640
723
809
869
890
876
842
807
779
763
756
756
759
762
763
756
739
709
669
621
571
523
483
451
434
430
430
421
387
323
240
154
90
56
46
46
45
39
29
19
11
6
3
1
0
0
0
0
0
0
0
0
0
0
0
0
0
0
0
0
0
0
0
0
1
2
4
6
9
12
14
15
15
15
18
28
48
80
118
156
188
210
222
226
226
226
229
239
259
293
341
399
463
526
578
612
626
625
623
638
682
755
841
914
954
956
928
890
856
834
825
825
827
829
829
826
816
796
762
714
656
592
528
475
439
423
421
420
403
358
285
199
123
73
51
47
47
43
33
20
8
2
0
0
0
0
0
0
0
0
0
0
0
0
0
0
0
0
0
0
0
0
0
1
2
4
6
8
11
13
15
16
16
16
18
27
47
83
131
181
229
265
285
294
295
295
299
313
343
393
460
543
628
710
775
813
825
822
825
855
927
1035
1159
1265
1326
1338
1309
1261
1215
1177
1155
1149
1152
1158
1162
1160
1147
1117
1067
1000
917
831
748
681
641
627
627
622
590
517
409
285
177
107
75
68
68
64
54
40
26
14
7
3
1
0
0
0
0
0
0
0
0
0
0
0
0
0
0
0
0
0
1
3
6
10
14
19
25
31
36
40
41
41
42
50
70
108
161
222
283
333
369
388
394
394
395
404
430
475
542
627
722
819
901
961
990
992
986
1000
1057
1168
1313
1461
1573
1623
1611
1561
1500
1448
1415
1401
1402
1410
1419
1423
1417
1392
1347
1280
1194
1097
997
911
847
813
805
805
786
725
613
468
319
199
129
103
100
100
91
74
52
32
18
9
4
1
0
0
0
0
0
0
0
0
0
0
0
0
0
0
0
0
0
0
1
3
6
10
15
21
28
35
40
43
43
43
48
65
99
147
203
259
309
347
371
383
385
385
389
406
440
488
544
596
637
666
684
691
689
682
677
684
711
759
817
862
879
859
813
757
703
657
625
607
601
605
610
611
598
566
519
463
410
367
335
313
301
297
297
295
283
253
205
147
97
63
49
47
47
45
41
35
29
23
17
12
7
3
1
0
0
0
0
0
0
0
0
0
0
0
0
0
0
0
1
3
5
8
11
15
19
22
24
25
25
26
33
52
88
138
194
247
290
318
330
332
332
336
349
377
422
480
547
613
675
726
763
780
780
776
785
823
892
985
1077
1140
1161
1139
1091
1035
983
943
919
910
910
912
910
899
874
833
779
716
651
588
535
495
475
471
471
459
419
349
256
163
93
53
39
37
37
36
33
29
26
24
22
20
18
15
11
7
3
1
0
0
0
0
0
0
0
0
0
0
0
0
0
1
2
4
6
9
13
17
19
19
19
21
30
52
86
126
166
198
220
232
236
236
236
240
253
277
309
349
392
437
479
516
544
559
560
556
561
593
660
750
838
893
905
880
840
801
775
762
759
762
766
769
767
755
731
699
659
616
571
528
490
460
443
439
439
430
396
329
239
149
85
51
42
42
41
35
26
17
10
6
3
1
0
0
0
0
0
0
0
0
0
0
0
0
0
0
0
0
0
0
0
0
0
1
3
6
10
14
18
20
20
20
23
35
59
95
135
173
207
229
242
246
246
246
250
262
286
324
372
428
489
547
599
640
663
667
663
667
699
766
863
960
1028
1049
1029
990
952
923
909
905
908
912
914
911
899
875
837
789
733
672
614
561
518
492
484
484
476
442
375
278
178
98
53
37
36
36
31
23
14
7
3
1
0
0
0
0
0
0
0
0
0
0
0
0
0
0
0
0
0
0
0
0
0
0
1
2
4
7
11
15
17
18
18
18
22
35
57
89
125
159
187
206
215
217
217
218
226
243
273
313
361
411
459
503
540
564
573
570
568
588
643
733
837
923
968
970
942
906
876
857
850
851
857
862
864
858
842
812
772
724
674
626
581
543
517
505
504
502
480
424
334
230
140
82
58
54
54
50
41
29
19
11
6
3
1
0
0
0
0
0
0
0
0
0
0
0
0
0
0
0
0
0
0
0
0
0
1
2
4
6
8
9
9
9
9
11
17
31
53
81
111
137
157
170
177
179
179
179
183
192
211
243
288
344
408
477
540
583
601
601
603
633
706
826
960
1078
1150
1171
1155
1125
1103
1096
1102
1112
1124
1133
1138
1137
1129
1110
1078
1033
977
913
843
779
734
714
712
709
679
606
486
350
226
140
97
85
85
81
68
49
32
18
9
4
1
0
0
0
0
0
0
0
0
0
0
0
0
0
0
0
0
0
0
1
2
4
6
8
9
10
11
12
12
12
12
12
17
30
54
86
122
156
184
203
213
217
217
217
223
240
272
317
369
418
459
491
509
517
517
516
523
549
597
658
722
767
782
767
735
700
674
659
654
657
663
671
678
677
664
633
588
535
487
449
422
408
403
403
403
395
369
321
260
196
147
120
112
112
111
103
90
76
63
53
45
38
33
29
28
28
28
26
21
14
8
4
3
3
3
3
3
3
3
2
1
0
1
2
3
4
5
6
7
7
7
7
8
12
22
41
67
99
133
163
189
206
213
214
214
218
234
266
319
392
478
570
655
721
760
771
770
779
824
910
1030
1153
1249
1300
1307
1285
1253
1223
1202
1188
1183
1185
1191
1195
1193
1178
1146
1093
1020
934
841
755
688
648
636
636
626
581
495
375
251
151
90
64
60
60
56
47
35
23
14
7
3
1
0
0
0
0
0
0
0
0
0
0
0
0
0
0
0
0
0
0
0
0
0
0
1
2
3
5
7
8
8
8
8
9
13
23
39
59
83
107
127
141
149
151
151
155
169
199
247
308
375
442
503
545
564
566
565
583
640
733
845
945
1014
1046
1045
1029
1011
995
984
977
973
972
974
976
973
959
929
881
820
753
686
625
582
562
559
558
538
480
387
275
175
105
69
60
60
58
50
37
24
14
7
3
1
0
0
0
0
0
0
0
0
0
0
0
0
0
0
0
0
0
0
0
0
0
1
3
6
10
13
15
16
16
16
16
16
18
24
37
57
83
113
141
167
186
196
199
199
202
216
250
303
376
462
547
621
674
700
705
703
714
759
842
950
1058
1142
1186
1193
1177
1151
1123
1100
1081
1069
1066
1070
1076
1078
1068
1036
984
911
825
739
663
607
577
569
569
557
512
429
321
213
127
77
57
53
53
51
46
39
32
25
18
12
7
3
1
0
0
0
0
0
0
0
0
0
0
0
0
0
0
0
0
0
1
3
6
10
14
18
20
21
21
21
21
25
38
64
104
154
207
252
286
305
310
310
314
331
367
423
496
576
656
725
779
812
822
819
818
840
897
987
1087
1173
1225
1238
1217
1177
1128
1078
1037
1006
989
985
985
981
965
930
875
803
724
644
574
518
482
468
467
464
440
382
292
192
106
50
24
19
19
18
15
11
8
6
5
5
5
4
3
2
1
0
0
0
0
0
0
0
0
0
0
0
0
0
0
0
0
1
3
5
8
12
16
20
23
25
26
26
27
34
53
89
139
195
248
291
319
331
332
332
341
367
412
473
543
613
676
724
756
770
770
766
772
805
870
959
1045
1111
1140
1131
1095
1046
997
954
921
901
894
896
897
888
862
817
756
686
616
552
502
468
451
447
447
437
401
334
244
158
91
55
45
45
44
37
27
17
9
4
1
0
0
0
0
0
0
0
0
0
0
0
0
0
0
0
0
0
0
0
0
0
0
1
4
8
13
17
20
21
21
21
21
23
30
47
77
120
170
218
258
284
296
298
298
303
320
354
404
468
544
627
709
779
825
842
840
841
872
945
1049
1161
1245
1288
1288
1259
1217
1174
1138
1110
1092
1083
1081
1081
1076
1059
1025
975
911
835
752
669
596
546
524
522
518
486
413
309
197
111
61
44
43
42
35
23
11
3
0
0
0
0
0
0
0
0
0
0
0
0
0
0
0
0
0
0
0
0
0
0
0
1
2
4
6
9
12
16
20
24
26
26
27
36
64
114
184
257
321
364
386
392
392
394
406
432
477
538
611
691
770
842
898
932
941
938
941
973
1045
1151
1263
1352
1396
1390
1344
1274
1204
1147
1112
1098
1098
1102
1103
1093
1068
1023
962
889
809
729
656
598
562
550
550
543
507
431
323
211
121
68
46
42
42
39
32
24
16
10
6
3
1
0
0
0
0
0
0
0
0
0
0
0
0
0
0
0
0
1
3
5
8
12
17
23
29
34
38
40
40
40
43
52
72
106
151
201
251
294
324
340
345
345
345
350
364
390
425
468
519
574
626
669
695
702
698
696
711
754
821
894
955
983
973
934
884
836
799
777
769
770
774
776
772
759
733
697
652
599
541
485
437
405
392
391
389
372
329
262
186
116
68
44
38
38
36
30
22
14
8
4
2
1
0
0
0
0
0
0
0
0
0
0
0
0
0
0
0
0
0
0
0
0
1
3
8
16
28
42
56
68
76
80
80
80
85
101
131
174
230
288
341
381
407
420
423
423
425
435
457
495
551
623
707
792
864
908
920
909
901
927
1003
1123
1259
1374
1438
1444
1410
1354
1298
1254
1227
1217
1218
1225
1232
1234
1226
1204
1166
1110
1037
951
861
781
725
699
696
692
658
578
458
322
202
122
86
77
77
75
66
53
37
23
13
6
2
0
0
0
0
0
0
0
0
0
0
0
0
0
0
0
0
0
0
0
0
1
3
7
11
15
20
25
29
31
31
31
34
46
70
106
149
192
230
260
280
290
294
294
295
304
326
360
400
445
484
518
540
553
559
557
552
550
562
596
646
701
739
749
727
687
644
607
581
567
563
564
568
571
566
547
515
476
431
391
355
329
312
302
299
299
297
283
249
199
141
91
57
43
40
40
39
35
29
23
18
14
10
6
3
1
0
0
0
0
0
0
0
0
0
0
0
0
0
0
0
0
0
1
2
3
4
5
6
7
8
8
8
8
12
24
46
78
114
148
176
193
201
203
203
204
211
227
253
291
336
384
428
470
505
530
542
543
542
554
592
659
742
818
864
872
849
813
779
753
739
734
734
735
735
729
714
689
652
608
560
515
472
436
410
397
395
395
382
344
277
194
114
56
26
17
17
17
15
12
9
7
6
5
4
3
2
1
0
0
0
0
0
0
0
0
0
0
0
0
0
0
0
0
0
1
2
4
6
8
10
11
12
12
12
12
16
28
50
82
120
158
190
210
220
223
223
225
237
263
306
362
423
487
544
591
621
633
634
632
641
674
738
824
917
986
1017
1011
980
943
911
891
884
884
888
892
893
883
858
815
759
698
634
576
528
496
482
479
479
469
435
371
285
192
119
76
60
59
58
52
40
27
17
10
6
3
1
0
0
0
0
0
0
0
0
0
0
0
0
0
0
0
0
0
0
0
0
1
2
4
7
10
13
15
16
16
16
16
18
26
43
71
107
147
185
215
235
244
246
246
250
264
294
342
406
479
554
620
671
702
711
708
710
733
786
866
952
1023
1060
1060
1034
998
964
936
918
907
903
903
903
899
885
855
807
743
670
594
527
474
440
428
428
424
400
347
267
181
108
63
46
44
44
38
28
16
7
2
0
0
0
0
0
0
0
0
0
0
0
0
0
0
0
0
0
0
0
0
0
0
1
2
4
6
9
12
15
17
19
19
19
20
27
44
76
121
174
224
264
290
302
305
305
307
317
341
379
435
502
574
646
705
748
767
768
765
775
809
873
953
1028
1079
1098
1080
1038
985
936
900
879
872
873
876
876
867
843
805
749
682
609
536
475
430
408
404
404
392
356
292
212
136
78
42
28
25
25
24
20
15
10
6
3
1
0
0
0
0
0
0
0
0
0
0
0
0
0
0
0
0
0
0
1
3
6
10
15
21
28
36
43
48
50
50
50
54
70
100
145
203
261
314
352
376
386
387
387
392
408
440
490
559
640
727
809
874
908
914
906
911
954
1042
1162
1286
1379
1421
1415
1374
1316
1263
1222
1198
1188
1190
1196
1200
1198
1183
1151
1101
1031
948
858
772
702
662
649
649
637
589
499
379
255
158
100
76
72
72
67
55
41
27
15
8
4
1
0
0
0
0
0
0
0
0
0
0
0
0
0
0
0
0
0
0
0
0
1
3
5
7
10
12
14
15
15
15
17
25
42
70
104
140
172
194
208
213
213
213
217
229
253
291
341
399
460
517
563
593
603
600
602
626
683
769
866
950
998
1007
985
951
917
891
877
871
874
881
887
887
879
857
820
770
712
651
593
545
513
501
501
497
471
413
327
230
144
88
62
56
56
54
48
40
32
24
17
11
7
3
1
0
0
0
0
0
0
0
0
0
0
0
0
0
0
0
0
0
0
0
1
3
6
9
11
13
14
14
14
14
16
22
36
62
98
141
184
220
244
254
255
255
262
284
324
380
447
520
593
656
704
731
738
736
738
765
826
919
1023
1107
1159
1171
1151
1115
1073
1034
1004
986
982
986
990
987
968
930
875
808
735
662
598
548
518
508
508
504
476
415
322
218
132
74
48
42
42
41
37
31
25
19
14
10
6
3
1
0
0
0
0
0
0
0
0
0
0
0
0
0
0
0
0
0
0
1
2
3
5
7
9
11
12
12
12
13
18
30
52
82
118
156
192
222
242
251
252
252
260
286
336
412
505
605
697
772
821
839
839
839
861
918
1011
1123
1226
1297
1325
1316
1286
1251
1219
1193
1175
1165
1163
1167
1171
1165
1140
1090
1014
921
821
728
652
602
582
580
578
554
496
403
291
187
111
71
58
58
57
51
41
29
19
12
7
3
1
0
0
0
0
0
0
0
0
0
0
0
0
0
0
0
0
0
0
0
0
1
3
6
9
12
14
15
15
15
15
17
24
40
68
106
151
196
236
268
285
290
290
292
306
340
396
472
558
648
730
792
827
838
836
837
858
911
991
1081
1159
1205
1213
1189
1151
1110
1074
1046
1026
1018
1019
1022
1021
1007
973
917
842
757
668
586
523
485
471
470
467
445
392
312
222
142
89
65
61
61
57
48
36
24
15
9
6
5
5
5
5
4
3
2
1
0
0
0
0
0
0
0
0
0
0
0
0
0
1
3
5
8
11
14
17
19
20
20
20
24
40
72
120
178
236
286
322
341
346
346
348
361
391
441
508
591
677
759
827
875
898
901
898
909
952
1037
1149
1261
1343
1377
1364
1318
1260
1207
1167
1143
1134
1136
1140
1140
1128
1099
1049
982
899
813
730
660
610
584
578
578
564
519
433
321
209
123
73
54
52
52
47
37
25
15
8
4
2
1
0
0
0
0
0
0
0
0
0
0
0
0
0
0
0
0
0
0
0
1
3
6
10
14
19
25
30
34
36
37
37
38
44
61
95
145
209
273
326
364
384
391
391
391
397
414
446
494
560
644
738
831
907
952
965
960
964
1005
1097
1229
1368
1478
1534
1532
1488
1424
1364
1323
1301
1297
1303
1312
1318
1315
1300
1268
1220
1153
1067
970
873
793
743
724
724
716
673
580
448
308
192
119
87
81
81
77
65
49
33
20
11
5
2
0
0
0
0
0
0
0
0
0
0
0
0
0
0
0
0
0
0
0
0
1
2
4
7
10
13
16
18
19
19
19
21
29
49
83
131
184
234
272
296
308
310
310
314
328
360
410
480
563
648
727
789
826
839
837
837
861
921
1014
1122
1217
1276
1290
1265
1217
1164
1118
1086
1069
1064
1069
1075
1076
1066
1037
988
918
835
749
669
605
565
549
548
545
519
458
365
257
160
93
59
50
50
50
46
40
33
26
19
13
8
4
1
0
0
0
0
0
0
0
0
0
0
0
0
0
0
0
0
0
0
1
3
5
8
12
16
20
23
24
24
24
28
44
76
121
177
235
285
321
340
345
345
347
359
387
430
491
564
640
715
777
823
846
848
844
853
895
974
1074
1171
1237
1259
1241
1198
1142
1085
1038
1006
991
990
994
996
988
964
925
868
797
722
646
582
534
508
502
502
489
444
364
264
167
97
59
45
43
43
42
39
35
31
27
23
19
15
11
7
3
1
0
0
0
0
0
0
0
0
0
0
0
0
0
0
0
1
3
5
7
9
11
13
14
14
14
15
22
39
69
109
152
192
224
244
254
257
257
258
265
282
312
357
413
477
540
599
647
677
688
687
687
706
759
842
938
1017
1061
1061
1029
986
947
919
905
901
903
906
907
901
885
856
812
757
694
631
570
520
488
475
474
472
452
399
316
219
133
72
42
34
34
33
29
23
17
12
9
7
6
5
4
3
2
1
0
0
0
0
0
0
0
0
0
0
0
0
0
0
0
0
0
0
1
2
4
6
7
7
7
7
8
12
22
39
63
93
125
155
179
193
200
201
201
204
217
245
288
344
411
481
548
605
642
657
656
658
684
745
842
949
1042
1096
1109
1091
1061
1031
1009
997
995
997
1002
1006
1005
993
966
923
867
800
730
663
605
567
550
549
546
520
459
362
254
157
93
63
57
57
55
47
35
23
14
8
4
2
1
0
0
0
0
0
0
0
0
0
0
0
0
0
0
0
0
0
0
0
1
2
4
6
9
12
15
17
18
18
18
22
34
58
96
144
194
239
273
295
304
306
306
310
324
356
406
473
556
641
723
791
834
851
850
849
873
936
1033
1145
1241
1296
1306
1276
1228
1180
1143
1122
1114
1118
1125
1132
1132
1120
1088
1038
971
888
802
719
649
604
584
582
580
554
490
393
281
181
114
80
72
72
70
62
49
35
22
13
6
2
0
0
0
0
0
0
0
0
0
0
0
0
0
0
0
0
0
0
0
0
1
3
5
8
12
16
20
24
26
27
27
28
35
55
91
144
205
263
311
345
362
366
366
370
386
422
478
554
640
729
810
872
909
919
915
918
950
1021
1124
1232
1317
1363
1363
1330
1277
1220
1170
1131
1106
1095
1095
1098
1096
1081
1045
989
913
827
737
654
590
550
536
536
529
493
420
316
208
122
69
49
46
46
42
34
25
16
10
6
3
1
0
0
0
0
0
0
0
0
0
0
0
0
0
0
0
0
0
0
0
0
1
3
7
12
19
27
35
43
49
53
53
53
57
73
109
165
235
305
369
419
451
467
471
471
477
501
549
629
733
852
974
1074
1142
1169
1166
1160
1182
1256
1380
1529
1665
1758
1790
1768
1712
1644
1584
1537
1506
1491
1487
1491
1495
1491
1468
1420
1340
1236
1116
992
888
815
781
776
774
744
664
536
387
251
154
106
92
92
90
80
63
44
27
15
7
3
1
0
0
0
0
0
0
0
0
0
0
0
0
0
0
0
0
0
0
0
0
1
3
6
10
15
21
26
31
34
34
34
36
45
67
105
153
203
251
289
313
325
328
328
331
344
374
422
489
572
657
738
805
846
858
853
852
877
944
1048
1164
1259
1311
1317
1285
1237
1188
1144
1112
1095
1090
1094
1102
1106
1099
1073
1027
960
877
791
708
638
593
576
575
571
541
471
367
251
154
93
65
59
59
58
54
48
41
34
27
19
12
6
2
0
0
0
0
0
0
0
0
0
0
0
0
0
0
0
0
0
0
1
3
7
11
15
19
23
25
25
25
26
